0.0 87.52
0.98 80.59
2.98 55.89
4.98 86.44
6.98 77.78
8.97 77.57
10.97 81.36
12.98 85.34
14.97 85.34
16.98 92.84
18.98 70.1
20.97 92.65
22.98 40.73
24.98 67.41
26.99 94.35
28.98 81.93
30.98 105.45
32.98 98.6
34.98 83.78
36.98 95.15
38.98 87.8
40.98 66.09
42.98 88.57
44.97 88.57
46.97 110.86
48.98 81.57
50.98 97.83
52.97 68.27
54.97 106.64
56.97 70.24
58.99 84.32
60.99 81.8
62.99 77.72
64.99 68.04
66.98 97.75
68.98 65.67
70.98 76.72
72.98 86.1
74.97 79.4
76.97 14.68
78.98 80.11
80.98 91.96
82.98 84.19
84.98 77.5
86.98 93.15
88.99 95.23
90.99 104.34
92.97 99.79
94.98 99.79
96.98 99.79
98.98 105.29
100.97 89.49
102.98 89.38
104.97 107.32
106.98 73.98
109.23 72.3
111.22 79.01
113.21 86.69
115.24 80.2
117.22 77.93
119.22 89.8
121.22 80.79
123.23 91.27
125.22 91.27
127.24 75.09
129.01 73.75
131.24 101.73
133.22 78.8
135.23 25.5
137.22 86.66
139.22 95.0
141.22 91.07
143.23 69.09
145.23 100.72
147.22 100.72
149.22 100.72
151.22 101.76
153.21 79.08
155.22 95.86
157.22 104.43
159.23 104.43
161.24 93.15
163.23 103.04
165.23 103.04
167.22 91.52
169.23 86.08
171.22 99.14
173.23 100.63
175.22 106.65
177.21 103.49
179.22 97.35
181.22 80.5
183.22 84.02
185.22 71.87
187.22 87.91
189.22 87.76
191.22 80.68
193.23 91.47
195.24 103.13
197.22 80.93
199.23 84.43
201.21 102.96
203.22 84.72
205.22 80.21
207.23 22.51
209.22 76.89
211.23 76.89
213.22 92.56
215.22 88.4
217.23 91.26
219.22 98.28
221.23 104.68
223.22 85.78
225.21 23.61
227.22 65.19
229.24 73.34
231.23 24.69
233.22 64.39
235.22 73.09
237.22 90.53
239.23 103.08
241.22 84.86
