0.0 91.28
0.97 62.28
2.97 65.13
4.97 102.27
6.97 102.27
9.24 89.15
11.24 89.15
13.22 69.99
15.0 67.35
17.22 66.8
19.21 92.1
21.22 74.3
23.22 74.3
25.22 85.26
27.22 85.26
29.22 82.9
31.22 82.9
33.22 92.53
35.22 92.53
37.22 90.39
39.0 95.7
41.22 78.33
43.22 78.33
45.22 77.02
47.22 78.43
49.21 82.6
51.22 93.12
53.22 83.53
55.22 69.18
57.22 105.79
59.22 79.37
61.22 103.42
63.21 69.54
65.24 98.45
67.22 111.5
69.21 102.97
71.22 101.86
73.22 78.68
75.22 78.68
77.23 105.77
79.23 80.09
81.22 99.51
83.22 21.26
85.22 84.82
87.21 75.41
89.21 63.29
91.21 91.09
93.22 70.66
95.22 70.66
97.22 89.26
99.22 74.54
101.22 82.59
103.23 96.32
105.22 88.46
107.22 56.16
109.21 90.8
111.21 97.53
113.22 99.42
115.22 77.49
117.22 80.39
119.22 88.61
121.22 107.38
123.22 89.75
125.22 104.3
127.22 75.87
129.21 84.11
131.22 80.82
133.22 73.44
135.21 100.32
137.22 71.43
139.22 106.75
141.22 85.78
143.22 81.01
145.22 78.66
147.22 86.07
149.21 71.94
151.21 47.9
153.22 85.72
155.22 66.83
157.23 84.5
159.21 86.97
161.22 54.59
163.22 69.74
165.22 92.86
167.22 91.12
169.21 101.45
171.22 73.43
173.22 74.99
175.22 87.8
177.22 87.67
179.22 90.61
181.22 80.17
183.21 81.15
185.22 85.43
187.21 69.57
189.21 72.56
191.22 63.32
193.23 84.1
195.22 97.46
197.22 73.75
199.22 23.82
201.23 104.53
203.22 91.85
205.22 76.49
207.21 88.26
209.22 87.09
211.22 97.78
213.22 79.05
215.22 74.98
217.22 79.19
219.22 71.1
221.22 73.69
223.22 86.62
225.22 72.1
227.22 73.58
229.21 84.32
231.21 69.29
233.22 100.2
235.22 80.81
237.22 74.68
239.22 77.68
241.22 88.98
243.22 80.13
245.22 93.2
247.22 101.2
249.21 68.45
251.22 85.51
253.22 87.22
255.21 85.01
257.22 85.9
259.47 85.9
261.47 85.9
263.47 85.9
265.47 85.9
267.47 85.9
269.47 85.3
271.47 90.79
273.47 101.64
275.47 94.01
277.5 106.04
279.47 91.64
281.48 71.45
283.47 82.3
285.47 76.68
287.47 87.64
289.47 87.64
291.48 87.64
293.48 116.52
295.47 82.95
297.47 82.02
299.47 84.45
301.47 82.25
303.48 81.06
305.47 89.2
307.48 106.14
309.47 111.38
311.48 101.49
313.47 93.19
315.48 109.86
317.47 86.18
319.47 86.08
321.47 85.43
323.47 83.77
325.47 85.59
327.47 91.23
329.47 84.65
331.47 77.21
333.47 82.36
335.47 76.3
337.47 72.19
339.47 76.52
341.49 83.25
343.51 39.85
345.48 1.68
347.47 25.12
349.48 86.18
351.47 81.54
353.48 79.46
355.47 83.32
357.47 22.27
359.47 83.69
361.47 92.25
363.47 119.71
365.47 119.71
367.47 71.14
369.47 71.14
371.48 71.14
373.48 71.14
375.48 117.12
377.47 117.12
379.48 117.12
381.47 13.18
383.47 100.62
385.47 100.62
387.47 100.62
389.47 94.45
391.47 94.45
393.47 82.22
395.49 84.09
397.47 84.09
399.47 23.45
401.47 32.45
403.47 97.63
405.48 80.34
407.47 86.89
409.48 72.74
411.47 77.01
413.48 87.99
415.48 63.54
417.47 69.88
419.47 90.16
421.47 79.73
423.47 90.34
425.47 97.81
427.48 97.81
429.47 88.23
431.47 81.83
433.47 1.64
435.47 78.62
437.47 81.43
439.49 75.9
441.47 79.21
443.48 21.92
445.47 82.94
