0.0 80.91
0.99 48.54
2.99 81.19
4.99 82.71
6.99 84.31
8.99 77.22
10.98 94.78
12.99 85.53
15.01 85.53
16.99 83.33
18.98 87.03
20.99 76.28
22.98 61.21
24.99 92.24
26.98 76.95
28.99 92.81
30.99 80.46
32.99 88.99
34.99 86.04
36.99 84.82
38.99 73.93
40.99 80.98
42.99 92.22
44.99 2.37
46.99 72.81
48.99 25.65
50.99 86.57
52.99 76.73
54.99 76.73
56.98 103.0
58.99 2.19
60.99 68.45
62.98 80.35
64.99 86.62
66.99 81.52
69.0 91.77
70.99 86.91
72.99 85.14
74.98 88.77
76.99 97.86
78.99 80.59
80.99 74.17
82.99 81.58
84.98 79.17
87.0 79.17
89.25 93.06
91.24 93.06
93.25 87.56
95.24 89.0
97.24 70.74
99.23 70.74
101.24 93.5
103.25 93.21
105.24 77.51
107.25 73.45
109.24 73.45
111.04 19.24
113.23 86.77
115.24 86.77
117.24 92.85
119.24 89.76
121.25 93.04
123.23 77.35
125.24 82.56
127.24 80.06
129.24 80.25
131.23 107.57
133.24 81.94
135.04 21.72
137.26 79.82
139.23 87.27
141.25 26.4
143.24 80.86
145.24 85.89
147.23 85.04
149.23 99.6
151.23 82.77
153.24 76.52
155.23 85.7
157.23 98.22
159.23 82.59
161.24 76.65
163.23 90.98
165.24 19.18
167.23 83.21
169.24 82.42
171.25 68.63
173.25 78.18
175.25 83.31
177.23 85.7
179.23 91.73
181.23 80.55
183.23 81.06
185.24 82.78
187.24 91.06
189.24 1.85
191.24 114.63
193.23 84.14
195.23 96.06
197.23 78.19
199.24 102.36
201.24 102.36
203.23 66.2
205.25 85.53
207.23 26.25
209.25 74.04
211.23 71.79
213.24 82.81
215.23 74.0
217.24 83.44
219.24 54.18
221.24 106.6
223.24 75.95
225.23 82.24
227.24 83.49
229.23 81.35
231.22 80.16
233.24 82.75
235.25 85.55
237.23 84.3
239.25 71.54
241.24 92.26
243.24 78.2
245.24 99.61
247.24 78.11
249.24 79.12
251.24 74.56
253.24 59.38
255.23 25.08
257.25 71.05
259.24 71.05
261.24 71.05
263.26 87.49
265.25 95.86
267.23 99.26
269.26 99.26
271.23 71.85
273.24 94.81
275.24 94.14
277.23 99.9
279.22 97.86
281.24 75.09
283.24 84.26
285.24 84.26
287.24 81.65
289.24 88.72
291.24 88.72
293.23 88.72
295.23 80.65
297.23 100.93
299.24 93.43
301.23 93.07
303.23 81.53
305.23 73.85
307.24 82.17
309.24 94.33
311.23 75.56
313.24 2.34
315.24 90.33
317.23 78.29
319.24 87.98
321.24 87.98
323.23 87.98
325.24 107.48
327.22 77.44
329.24 111.07
331.24 73.38
333.49 78.16
335.24 71.48
337.25 82.91
339.5 82.91
341.49 82.91
343.5 82.91
345.49 82.91
347.49 82.91
349.49 82.91
351.49 82.91
353.49 102.37
355.49 91.25
357.5 87.03
359.49 103.64
361.49 25.59
363.49 91.5
365.49 89.66
367.49 84.74
369.48 75.26
371.49 95.61
373.5 83.74
375.49 67.34
377.5 67.34
379.5 67.34
381.49 67.34
383.49 83.03
385.49 83.03
387.49 100.99
389.48 94.53
391.49 102.3
393.49 67.35
395.48 67.15
397.49 67.52
399.49 99.21
401.49 84.95
403.49 84.95
405.49 96.94
407.51 96.94
409.49 96.94
411.49 96.94
413.49 80.79
415.49 81.8
417.49 74.1
419.49 105.49
421.49 79.07
423.49 82.96
425.49 87.07
427.49 75.61
429.49 70.94
431.49 89.56
433.49 2.35
435.49 67.96
437.5 75.17
439.49 62.02
441.5 101.02
443.49 87.12
445.5 83.12
447.48 66.52
449.49 99.28
451.49 92.34
453.49 82.92
455.49 83.33
457.49 83.21
459.49 73.93
461.5 76.61
463.49 81.24
465.48 76.11
467.49 85.09
469.48 74.55
471.5 78.43
473.49 84.95
475.5 88.21
477.49 91.4
479.49 98.22
481.49 74.05
483.48 74.05
485.49 74.84
487.5 90.23
489.49 108.25
491.49 91.61
493.49 108.49
495.49 20.03
497.49 81.63
499.48 72.9
501.49 81.06
503.49 68.43
505.5 81.8
507.48 88.84
509.5 88.84
511.49 88.84
513.49 91.16
515.48 83.0
517.49 82.08
519.49 82.08
521.49 82.08
523.49 82.08
525.49 82.08
527.49 82.08
529.49 82.08
531.49 82.08
533.48 86.95
535.5 98.19
537.49 78.58
539.48 2.03
541.49 82.5
543.47 67.2
545.49 87.89
547.5 107.33
549.49 21.62
551.49 111.41
553.52 105.65
