0.0 92.51
1.14 72.37
3.13 77.29
5.15 83.47
7.13 66.42
9.14 86.59
11.13 97.79
13.12 97.1
15.13 26.25
17.13 87.78
19.12 73.84
21.14 93.36
23.14 91.9
25.14 2.74
27.13 87.6
29.14 72.82
31.12 94.28
33.13 110.91
35.13 15.91
37.12 103.78
39.13 117.89
41.14 74.78
43.12 18.68
45.14 98.76
47.14 72.77
49.13 73.07
51.13 89.9
53.13 81.03
55.15 78.96
57.12 77.21
59.14 89.65
61.13 75.43
63.13 2.35
65.13 96.15
67.12 84.66
69.13 85.1
71.13 68.03
73.13 20.74
75.13 93.01
77.13 74.7
79.12 92.82
81.14 77.36
83.13 84.9
85.13 81.79
87.13 100.34
89.14 82.94
91.12 63.0
93.14 93.43
95.13 92.08
97.13 89.48
99.12 88.04
101.13 85.47
103.12 87.11
105.13 72.58
107.12 81.31
109.13 91.47
111.13 91.69
113.13 87.09
115.11 70.29
117.13 82.41
119.13 85.85
121.13 70.11
123.13 70.11
125.13 17.94
127.13 80.66
129.13 77.94
131.12 88.1
133.13 83.99
135.12 77.01
137.13 81.62
139.12 84.99
141.14 85.89
143.13 75.36
145.14 100.46
147.13 84.56
149.13 20.71
151.13 80.39
153.12 87.59
155.13 90.53
157.13 73.97
159.12 78.72
161.12 85.36
163.12 95.88
165.12 87.24
167.13 75.82
169.38 46.66
171.38 85.91
173.38 79.83
175.38 84.61
177.38 88.87
179.38 85.08
181.38 70.44
183.38 2.18
185.38 92.78
187.38 31.88
189.38 86.87
191.38 79.28
193.38 77.92
195.37 85.09
197.38 87.29
199.39 112.18
201.38 88.8
203.38 87.78
205.36 88.34
207.38 22.66
209.38 85.2
211.39 51.13
213.38 60.38
215.38 93.52
217.37 74.44
219.38 75.2
221.4 75.6
223.38 89.24
225.38 97.67
227.38 89.95
229.38 82.15
231.38 86.41
233.37 72.89
235.39 89.45
237.38 76.59
239.39 73.74
241.38 18.46
243.39 54.53
245.38 1.66
247.38 84.23
249.38 72.65
251.38 79.5
253.38 102.52
255.37 91.52
257.38 86.6
259.38 89.48
261.38 72.5
263.38 76.54
265.38 86.83
267.38 95.97
269.38 103.85
271.37 95.4
273.38 95.4
275.38 97.76
277.38 97.76
279.38 97.76
281.38 113.97
283.4 90.18
285.38 104.48
287.39 64.75
289.38 71.31
291.37 89.43
293.38 79.95
295.37 79.95
297.38 113.6
299.37 85.62
301.39 80.46
303.38 77.8
305.36 77.41
307.39 76.18
309.38 81.85
311.37 87.76
313.37 23.97
315.38 83.67
317.4 87.81
319.38 97.78
321.39 89.08
323.38 70.84
325.38 63.15
327.37 99.29
329.38 99.29
331.38 99.29
333.38 99.29
335.38 99.29
337.38 99.29
339.38 99.29
341.38 99.29
343.38 99.29
345.38 99.29
347.39 99.29
349.38 99.29
351.38 99.29
353.38 99.29
355.38 87.84
357.38 87.84
359.38 83.38
361.37 90.97
363.38 80.83
365.37 68.51
367.38 77.31
369.38 84.04
371.38 76.89
373.38 83.12
375.37 83.87
377.37 85.03
379.38 81.59
381.39 95.22
383.38 86.34
385.39 90.67
387.38 77.22
389.38 4.39
391.38 88.37
