0.0 81.96
1.0 69.61
3.01 57.82
5.0 71.0
7.01 106.91
8.99 67.98
11.0 62.67
13.0 101.22
15.0 81.14
17.0 63.71
19.0 91.19
21.0 71.79
23.0 70.37
25.0 70.69
27.0 81.11
29.0 60.93
31.0 81.14
33.02 75.95
35.0 51.71
37.01 84.76
39.0 91.46
41.0 71.9
43.0 74.73
45.0 69.83
47.0 63.47
48.99 76.86
51.0 76.53
53.01 72.16
55.0 80.12
57.0 79.13
59.0 75.68
61.0 82.3
63.02 56.06
65.0 87.82
67.02 70.29
68.99 97.37
71.01 78.09
73.0 81.97
75.01 2.51
77.0 81.03
79.0 73.01
81.0 77.84
83.0 80.67
85.0 71.49
87.0 80.29
88.99 85.8
91.02 44.05
93.01 76.2
95.0 83.15
97.02 92.23
99.0 81.7
101.01 88.62
103.0 86.22
105.01 78.91
107.01 85.44
108.99 77.21
111.0 100.01
113.0 93.7
115.0 67.44
117.02 80.14
119.0 112.94
121.0 97.48
123.0 87.16
125.01 58.17
127.0 2.56
128.99 67.2
131.0 95.79
133.0 79.03
135.0 96.97
137.01 74.16
139.0 71.99
141.0 89.08
143.0 90.69
145.0 108.85
147.0 80.12
148.99 89.77
150.99 84.25
153.01 70.59
155.0 109.23
157.01 84.88
159.0 85.45
161.0 74.31
163.0 76.1
165.01 21.03
167.0 62.91
168.99 78.44
171.0 96.58
173.01 56.24
175.0 78.05
177.01 72.0
179.03 76.85
181.25 82.28
183.25 80.9
185.25 86.82
187.25 99.67
189.26 93.99
191.25 78.99
193.26 106.39
195.26 100.35
197.25 104.5
199.26 97.09
201.25 92.91
203.04 100.0
205.26 75.02
207.26 83.65
209.25 80.23
211.26 69.05
213.25 79.96
215.26 95.74
217.26 77.85
219.25 90.47
221.25 74.87
223.25 85.3
225.25 85.42
227.24 84.77
229.25 91.59
231.26 86.7
233.26 87.38
235.26 81.01
237.25 19.21
239.25 86.52
241.25 87.4
243.25 57.33
245.24 102.24
247.25 78.67
249.25 84.91
251.24 82.57
253.25 93.25
255.25 74.63
257.26 23.83
259.25 76.75
261.26 76.75
263.25 88.9
265.25 93.12
267.26 89.15
269.25 75.95
271.25 85.38
273.25 88.72
275.24 94.86
277.25 94.86
279.26 92.54
281.26 91.45
283.25 112.56
285.25 83.21
287.26 81.22
289.25 48.67
291.26 79.56
293.25 108.45
295.26 99.85
297.26 76.16
299.24 83.57
301.25 80.12
303.25 112.28
305.26 77.44
307.26 80.84
309.25 96.37
311.25 82.05
313.25 72.63
315.26 102.03
317.26 90.49
319.25 87.86
321.26 69.18
323.24 69.26
325.26 48.94
327.25 74.28
329.25 88.61
331.26 88.61
333.25 88.61
335.26 77.07
337.26 90.3
339.25 87.45
341.25 99.04
343.25 82.77
345.25 82.77
347.24 81.7
349.25 88.08
351.25 73.12
353.25 81.06
355.26 84.52
357.25 76.09
359.26 99.66
361.25 99.66
363.25 99.66
365.25 102.68
367.25 91.15
369.25 75.68
371.27 78.54
373.25 87.64
375.26 90.23
377.26 25.31
379.25 55.76
381.25 101.86
383.25 85.0
385.25 80.77
387.25 85.9
389.27 67.27
391.25 67.27
393.24 67.27
395.24 89.91
397.25 103.59
399.25 96.98
401.25 84.13
403.26 104.2
405.25 80.73
407.26 74.11
409.25 68.29
411.26 68.29
413.25 68.29
415.25 68.29
417.24 32.19
419.25 18.14
421.26 49.63
423.26 42.5
425.26 60.96
427.26 66.78
429.51 73.06
431.5 80.48
433.29 76.94
435.5 83.0
437.5 74.62
439.5 90.43
441.5 100.51
443.5 91.54
445.51 96.08
447.5 76.79
449.5 85.27
451.5 84.61
453.51 115.3
455.5 84.21
457.3 22.53
459.5 79.57
461.52 103.65
463.49 93.12
465.51 90.81
467.51 116.55
469.49 116.55
471.5 115.78
473.5 88.14
475.5 69.51
477.5 100.16
479.5 79.16
481.49 90.35
483.5 82.56
485.5 89.62
487.51 80.24
489.5 89.1
491.51 91.11
493.51 91.11
495.5 96.8
497.5 95.12
499.5 94.76
501.51 110.81
503.5 110.81
505.49 99.05
507.5 90.23
509.5 93.97
511.5 105.01
513.5 77.55
515.51 78.81
517.5 106.6
519.5 112.93
521.5 18.25
523.51 67.84
525.5 72.19
527.5 85.84
529.49 16.79
531.5 82.64
533.5 78.21
535.5 12.36
537.5 100.04
539.5 88.19
541.5 82.62
543.51 81.22
545.5 90.97
547.51 88.55
549.51 83.75
551.5 102.48
553.49 24.01
555.5 74.14
557.51 86.83
559.5 69.61
561.5 95.27
563.51 85.81
565.49 89.43
567.51 85.3
569.5 97.82
571.5 95.17
573.49 98.77
575.5 102.01
577.5 96.73
579.5 96.73
581.5 96.73
583.5 72.7
585.5 74.66
587.5 81.18
589.5 82.27
591.51 85.14
593.5 104.59
595.5 74.22
597.5 105.95
599.5 91.66
601.49 89.83
603.5 88.92
605.51 74.2
607.5 89.87
609.5 90.03
611.5 90.03
613.5 97.02
615.5 93.26
617.5 83.46
619.5 93.76
621.51 84.2
623.5 77.21
625.49 87.3
627.5 81.86
629.5 78.95
631.5 96.85
633.5 85.82
635.51 77.94
637.5 92.36
639.5 93.62
641.52 86.71
643.5 89.9
645.5 78.62
647.51 77.28
649.49 106.81
651.5 99.15
653.5 99.15
655.51 106.35
657.51 82.52
659.5 86.98
661.5 93.17
663.5 79.18
665.5 79.18
667.5 89.2
669.5 82.21
671.5 85.02
673.49 83.19
675.5 84.1
677.5 80.66
679.75 83.01
681.75 92.33
683.75 105.58
685.75 101.64
687.75 77.18
689.75 74.33
691.75 87.13
693.74 93.19
695.75 71.02
697.75 74.77
699.75 78.28
701.75 92.38
703.75 79.06
705.75 77.87
707.75 22.1
709.75 19.75
711.76 72.63
713.75 91.53
715.75 85.29
717.75 2.64
719.76 68.56
721.76 21.7
723.75 77.85
725.76 101.19
727.76 97.9
729.75 106.84
731.75 89.5
733.75 77.02
735.75 89.16
737.75 85.53
739.75 85.14
741.74 79.47
743.75 97.15
745.77 86.59
747.75 80.92
749.76 96.44
751.75 47.45
753.74 91.67
755.75 67.89
757.75 81.04
759.76 89.3
761.75 81.14
763.75 90.62
765.75 1.7
767.75 87.51
769.75 79.62
771.76 80.41
773.75 84.39
775.75 72.94
777.75 88.64
779.75 88.38
781.75 92.36
783.75 92.15
785.76 94.41
787.75 78.28
789.76 97.87
791.75 52.14
793.77 84.65
795.75 95.02
797.75 96.94
799.75 104.39
801.74 84.23
803.75 90.31
805.75 69.32
807.75 74.93
809.75 81.87
811.75 85.86
813.74 74.92
815.75 80.78
817.76 83.36
819.74 81.56
821.75 91.77
823.77 85.22
825.75 64.28
827.76 93.89
829.76 80.29
831.75 83.65
833.75 98.53
835.75 83.02
837.75 93.19
839.76 74.9
841.76 94.21
843.75 95.49
845.76 72.52
847.75 94.83
849.75 80.28
851.75 77.83
853.75 80.47
855.75 77.07
857.76 91.42
859.75 78.06
861.74 81.93
863.75 82.17
865.75 27.97
867.75 82.39
869.75 62.01
871.75 2.33
873.75 84.27
875.75 2.54
877.76 92.64
879.75 89.86
881.75 81.7
883.75 71.0
885.75 9.97
887.77 91.11
889.75 81.2
891.76 88.7
893.76 59.07
895.76 71.27
897.75 87.1
899.76 83.76
901.75 96.23
903.75 87.11
905.75 116.24
907.75 59.34
909.75 100.13
911.75 87.92
913.76 85.18
915.75 81.18
917.76 78.21
919.75 70.51
921.74 77.38
923.75 82.68
925.78 77.63
927.75 84.37
930.0 93.5
932.01 77.38
933.99 76.52
936.0 81.06
938.0 71.43
940.0 88.42
942.0 74.88
944.0 75.96
946.0 76.91
948.0 96.51
950.01 71.61
951.79 91.41
954.01 71.83
956.0 82.11
958.02 73.06
960.0 81.69
961.99 84.86
963.99 84.92
966.0 75.22
968.0 80.03
970.0 62.71
972.0 84.14
974.0 86.32
975.99 88.39
978.02 66.74
980.0 92.51
982.0 73.62
984.01 77.79
986.0 73.85
988.0 81.01
990.0 77.7
992.02 87.38
994.0 80.08
996.01 82.58
998.0 107.54
1000.01 75.77
1002.0 81.74
1004.0 66.25
1006.0 64.46
1008.0 81.44
1010.0 84.6
1012.0 59.9
1014.0 87.84
1016.0 73.05
1018.0 71.94
1020.0 88.21
1022.0 76.1
1023.99 75.5
1026.01 66.3
1028.0 90.65
1030.01 2.33
1032.0 85.81
1034.0 56.61
1036.0 46.57
1038.0 78.85
1040.0 78.27
1042.0 69.04
1044.01 88.07
1046.0 81.53
1048.0 80.26
1050.0 67.77
1052.01 85.72
1054.0 70.69
1056.0 95.98
1058.0 70.95
1060.01 61.09
1062.0 79.16
1064.0 90.19
1066.01 79.05
1068.0 69.83
1070.0 78.21
1071.99 67.73
1074.0 58.92
1076.0 74.43
1078.0 29.49
1080.0 77.23
1082.02 86.0
1084.0 80.6
1086.0 79.36
1088.0 76.22
1090.02 78.61
1092.0 86.97
1094.02 78.19
1095.99 82.03
1098.0 76.68
1100.0 79.46
1102.0 85.89
1104.0 67.84
1106.0 81.65
1108.0 57.71
1110.01 62.93
1112.0 81.85
1114.0 79.74
1116.0 61.05
1118.0 79.76
1119.99 75.0
1122.0 47.86
1124.01 69.62
1126.0 90.81
1128.0 82.04
1130.0 6.02
1132.0 39.36
1134.0 77.89
1136.0 80.25
1138.01 65.8
1140.0 73.77
1142.0 75.95
1143.99 68.68
1146.0 58.0
1148.0 55.01
1150.0 73.99
1152.0 77.9
1154.0 76.76
1156.0 72.97
1158.02 105.27
1160.01 75.96
1162.01 84.04
1164.0 21.62
1166.0 74.09
1167.99 94.61
1170.0 91.49
1172.01 77.57
1174.0 106.15
1176.0 100.67
1178.0 83.68
1180.25 88.29
1182.25 91.45
1184.26 95.98
1186.25 87.27
1188.24 80.24
1190.26 74.57
1192.25 2.52
1194.26 0.6
1196.25 80.73
1198.26 92.99
1200.25 87.56
1202.25 81.93
1204.26 70.04
1206.25 63.03
1208.25 85.73
1210.25 78.5
1212.27 25.53
1214.25 86.91
1216.25 86.86
1218.25 80.98
1220.25 73.15
1222.25 18.36
1224.26 75.72
1226.25 85.01
1228.27 90.52
1230.25 78.75
1232.26 73.96
1234.27 90.09
1236.25 56.81
1238.25 78.92
1240.25 78.53
1242.26 76.55
1244.25 86.38
1246.25 21.18
1248.25 79.59
1250.25 103.4
1252.25 77.09
1254.26 87.9
1256.25 74.16
1258.27 73.6
1260.26 86.12
1262.27 85.51
1264.26 82.77
1266.25 84.4
1268.25 93.53
1270.25 18.76
1272.25 102.79
1274.25 105.62
1276.25 96.47
1278.25 82.89
1280.25 86.88
1282.25 87.77
1284.25 77.55
1286.24 83.37
1288.25 5.65
1290.25 95.67
1292.27 83.38
1294.25 83.38
1296.26 82.06
1298.26 77.15
1300.25 85.39
1302.25 85.59
1304.25 89.8
1306.25 90.7
1308.25 23.63
1310.25 67.44
1312.25 67.44
1314.25 82.24
1316.25 91.76
1318.25 74.41
1320.24 107.36
1322.25 76.54
1324.25 82.97
1326.26 79.71
1328.26 103.84
1330.26 87.4
1332.25 73.45
1334.25 67.52
1336.25 91.0
1338.26 90.39
1340.25 90.39
1342.25 73.13
1344.25 83.99
1346.25 97.34
1348.25 98.38
1350.25 84.72
1352.26 80.78
1354.26 90.57
1356.27 23.89
1358.25 4.87
1360.27 129.77
1362.25 84.13
1364.25 79.2
1366.25 104.61
1368.25 79.83
1370.25 1.9
1372.26 99.63
1374.26 81.46
1376.25 77.24
1378.26 83.87
1380.26 87.04
1382.26 84.6
1384.25 84.04
1386.25 77.43
1388.25 108.79
1390.26 68.19
1392.25 96.8
1394.25 88.57
1396.25 90.38
1398.25 96.23
1400.25 84.44
1402.25 84.44
1404.25 26.72
1406.25 78.82
1408.25 91.03
1410.25 73.89
1412.25 73.89
1414.25 94.33
1416.25 75.1
1418.25 75.1
1420.25 79.39
1422.26 87.59
1424.26 78.81
1426.25 78.06
1428.26 83.73
1430.5 102.47
1432.5 85.13
1434.51 92.78
1436.5 72.11
1438.5 79.97
1440.5 93.23
1442.51 83.73
1444.5 73.98
1446.28 73.15
1448.5 77.46
1450.51 78.68
1452.5 80.64
1454.5 79.43
1456.5 73.4
1458.5 96.43
1460.51 102.6
1462.5 83.54
1464.5 76.12
1466.51 76.12
1468.51 76.12
1470.29 76.12
1472.5 76.12
1474.5 76.12
1476.5 76.12
1478.5 76.12
1480.5 76.12
1482.5 76.12
1484.49 76.12
1486.5 0.55
1488.49 28.17
1490.51 25.45
1492.51 25.45
1494.5 25.45
1496.5 26.83
1498.5 43.94
1500.5 50.63
1502.5 48.9
1504.5 56.13
1506.5 56.13
1508.5 39.53
1510.5 61.6
1512.5 61.6
1514.5 60.58
1516.5 81.77
1518.49 75.12
1520.5 82.35
1522.5 56.42
1524.51 56.42
1526.5 83.67
1528.5 93.12
1530.51 85.64
1532.5 81.9
1534.5 85.54
1536.49 82.57
1538.5 61.53
1540.5 71.93
1542.5 77.59
1544.5 103.64
1546.49 78.43
1548.5 88.68
1550.51 79.51
1552.5 30.3
1554.5 115.07
1556.5 85.77
1558.5 71.38
1560.5 71.38
1562.5 71.38
1564.5 83.34
1566.49 84.32
1568.5 93.73
1570.5 73.04
1572.5 91.46
1574.5 94.84
1576.5 85.02
1578.5 84.41
1580.51 84.41
1582.5 88.61
1584.5 104.07
1586.5 85.02
1588.5 76.06
1590.49 101.56
1592.5 76.84
1594.5 69.42
1596.48 85.49
1598.5 86.87
1600.5 55.94
1602.51 70.4
1604.5 88.71
1606.5 86.73
1608.5 92.21
1610.5 2.3
1612.5 68.9
1614.49 86.53
1616.5 70.0
1618.5 70.48
1620.5 18.09
1622.51 73.65
1624.5 86.83
1626.5 73.76
1628.5 93.09
1630.5 77.18
1632.5 99.63
1634.5 91.84
1636.5 102.74
1638.49 18.3
1640.5 73.76
1642.5 76.23
1644.5 84.76
1646.5 90.56
1648.5 106.6
1650.5 77.56
1652.5 74.94
1654.5 79.97
1656.5 103.04
1658.51 81.0
1660.5 96.72
1662.5 26.44
1664.5 48.22
1666.5 95.63
1668.51 92.93
1670.5 92.31
1672.5 73.38
1674.5 67.85
1676.5 88.93
1678.5 83.73
1680.75 71.89
1682.75 75.14
1684.75 72.36
1686.75 106.09
1688.76 80.61
1690.75 96.12
1692.75 99.51
1694.76 76.2
1696.75 83.16
1698.74 103.05
1700.53 90.4
1702.75 99.58
1704.75 85.61
1706.76 69.05
1708.75 85.89
1710.75 25.33
1712.75 77.05
1714.75 111.98
1716.75 74.74
1718.75 93.0
1720.75 95.44
1722.76 75.91
1724.55 84.3
1726.75 83.61
1728.75 89.94
1730.76 76.18
1732.75 80.9
1734.76 83.06
1736.76 71.52
1738.75 84.36
1740.75 83.26
1742.75 80.79
1744.75 91.08
1746.75 82.61
1748.74 78.64
1750.75 91.21
1752.74 34.05
1754.75 75.27
1756.74 118.01
1758.75 80.06
1760.75 84.41
1762.76 90.12
1764.75 79.13
1766.75 83.96
1768.75 90.84
1770.75 86.84
1772.74 75.01
1774.75 79.6
1776.75 94.49
1778.75 79.92
1780.75 77.06
1782.75 104.59
1784.75 86.75
1786.75 84.6
1788.75 76.25
1790.75 104.99
1792.75 75.25
1794.75 75.33
1796.74 95.01
1798.75 75.55
1800.75 83.8
1802.75 64.93
1804.75 82.09
1806.75 72.76
1808.75 100.67
1810.75 90.26
1812.75 75.46
1814.75 95.34
1816.75 76.93
1818.75 87.47
1820.74 74.1
1822.75 76.04
1824.75 82.44
1826.75 69.11
1828.75 67.55
1830.76 81.2
1832.74 90.21
1834.75 87.08
1836.75 87.57
1838.75 93.34
1840.75 86.39
1842.74 84.43
1844.75 107.05
1846.76 87.74
1848.75 83.59
1850.75 77.72
1852.75 68.58
1854.75 82.65
1856.75 85.8
1858.75 86.46
1860.75 81.68
1862.75 77.52
1864.75 10.24
1866.75 83.87
1868.74 81.53
1870.75 86.46
1872.75 81.98
1874.76 87.3
1876.76 82.96
1878.76 79.69
1880.76 90.31
1882.75 91.43
1884.75 83.17
1886.75 71.21
1888.75 82.85
1890.75 65.0
1892.74 85.55
1894.75 83.32
1896.75 78.83
1898.75 79.07
1900.76 85.1
1902.75 81.76
1904.75 96.15
1906.75 85.73
1908.74 83.68
1910.74 79.7
1912.76 24.89
1914.76 88.01
1916.74 21.01
1918.75 80.55
1920.75 83.14
1922.75 47.77
1924.75 82.63
1926.76 87.05
1928.75 82.79
1931.0 77.03
1933.0 85.17
1935.0 76.79
1937.0 79.4
1939.0 68.58
1941.0 69.24
1943.0 67.12
1945.0 61.79
1947.02 76.02
1949.0 79.06
1951.0 77.38
1952.99 76.5
1955.0 74.08
1957.0 75.46
1959.0 76.99
1961.0 55.37
1963.0 73.98
1965.0 73.39
1967.0 101.85
1969.0 49.76
1971.0 71.46
1973.0 80.97
1975.0 79.31
1977.01 61.9
1979.0 59.59
1981.01 66.0
1983.0 64.78
1985.0 77.96
1987.0 75.34
1989.0 91.43
1991.0 85.93
1993.0 70.45
1995.0 90.52
1997.0 85.17
1999.0 66.14
2001.0 89.74
2003.01 79.49
2005.0 99.89
2007.0 83.75
2009.0 86.51
2011.02 88.91
2012.99 78.34
2015.0 68.37
2017.0 76.9
2019.0 79.66
2021.0 103.99
2022.98 73.21
2025.0 85.64
2027.01 89.87
2029.0 81.61
2031.0 82.28
2033.0 79.05
2035.0 84.83
2037.0 79.1
2039.0 95.06
2041.0 68.78
2043.0 80.1
2045.0 102.84
2047.01 74.87
2049.0 114.95
2051.0 86.31
2053.0 90.43
2055.0 90.44
2057.0 21.76
2059.0 91.86
2061.0 22.54
2063.0 84.98
2065.0 71.52
2067.0 69.26
2069.0 92.77
2071.01 91.43
2072.99 93.88
2075.0 73.97
2077.0 80.09
2079.01 92.64
2081.0 85.26
2083.0 59.43
2085.0 91.52
2087.0 84.06
2089.0 90.84
2091.0 8.45
2093.01 82.47
2095.0 86.64
2097.0 68.7
2099.0 76.8
2101.0 59.2
2103.0 68.55
2105.01 97.05
2107.0 78.22
2109.01 60.92
2111.01 85.11
2113.0 64.22
2115.0 84.27
2117.0 70.09
2119.0 74.46
2121.0 76.91
2123.0 76.28
2125.0 87.96
2127.0 91.14
2129.0 99.13
2131.0 86.89
2132.98 87.54
2135.0 70.54
2137.0 95.27
2139.0 86.93
2141.0 70.64
2143.0 88.25
2145.0 81.22
2147.01 87.62
2149.0 65.43
2151.0 62.38
2153.0 75.48
2155.0 71.74
2157.0 18.15
2158.99 75.04
2161.0 70.48
2163.0 71.69
2165.0 69.67
2167.0 80.25
2169.01 98.06
2171.01 79.26
2173.0 71.98
2175.0 80.27
2177.0 82.07
2179.0 76.04
2181.25 92.87
2183.24 94.36
2185.25 74.65
2187.26 80.41
2189.24 79.9
2191.25 95.74
2193.24 82.51
2195.02 83.05
2197.27 76.26
2199.25 82.99
2201.25 87.6
2203.26 81.11
2205.26 75.79
2207.24 78.14
2209.24 92.32
2211.26 78.98
2213.25 97.48
2215.25 7.5
2217.25 85.78
2219.02 96.82
2221.25 71.89
2223.25 71.08
2225.26 25.38
2227.25 55.88
2229.24 55.88
2231.26 93.89
2233.25 61.91
2235.25 71.35
2237.25 121.16
2239.26 115.28
2241.24 85.32
2243.24 2.73
2245.25 103.68
2247.24 103.68
2249.24 109.16
2251.25 114.45
2253.25 102.58
2255.26 90.77
2257.25 94.7
2259.27 113.2
2261.25 113.2
2263.25 104.19
2265.26 72.07
2267.24 100.8
2269.24 74.53
2271.24 91.94
2273.26 21.82
2275.26 90.7
2277.26 106.99
2279.24 77.63
2281.24 101.85
2283.25 120.22
2285.25 96.8
2287.24 118.28
2289.24 112.47
2291.24 25.24
2293.25 72.48
2295.25 82.65
2297.25 24.14
2299.24 73.76
2301.25 12.34
2303.26 93.16
2305.24 91.43
2307.25 111.26
2309.24 87.33
2311.26 116.82
2313.25 99.98
2315.25 106.09
2317.24 89.38
2319.25 93.96
2321.25 89.34
2323.26 88.13
2325.28 84.25
2327.24 76.44
2329.23 100.48
2331.25 79.01
2333.26 119.48
2335.24 89.24
2337.25 75.78
2339.24 74.06
2341.25 86.86
2343.25 45.14
2345.24 93.05
2347.25 81.31
2349.24 103.62
2351.25 95.38
2353.25 0.84
2355.25 94.6
2357.25 78.11
2359.25 19.88
2361.24 95.18
2363.24 82.8
2365.26 100.34
2367.27 90.45
2369.25 89.65
2371.26 91.62
2373.27 91.47
2375.25 88.3
2377.25 75.48
2379.25 81.84
2381.25 81.84
2383.25 86.98
2385.25 87.54
2387.24 81.13
2389.24 73.48
2391.25 89.89
2393.26 81.57
2395.25 104.99
2397.25 116.45
2399.24 93.36
2401.26 83.6
2403.26 83.6
2405.26 96.13
2407.24 82.18
2409.24 80.66
2411.24 100.13
2413.25 81.7
2415.25 81.7
2417.26 100.95
2419.25 86.24
2421.24 86.24
2423.25 87.41
2425.25 93.33
2427.24 74.6
2429.24 112.18
2431.5 84.8
2433.49 84.8
2435.5 1.99
2437.52 79.41
2439.5 70.22
2441.5 20.92
2443.5 76.37
2445.5 92.36
2447.5 92.36
2449.29 17.91
2451.5 70.22
2453.49 70.22
2455.51 20.9
2457.49 84.13
